Index,-30,-20,-10,0,10,20,frequency (Hz)
0,-121.097702026367,-129.896453857422,-110.605827331543,-104.841361999512,-89.2593078613281,-86.5718841552734,1.0
1,-121.107925415039,-129.904586791992,-110.614761352539,-104.850547790527,-89.2664642333984,-86.5789489746094,7.249375
2,-121.118865966797,-129.913452148437,-110.624404907227,-104.860481262207,-89.2743377685547,-86.5867309570313,13.49875
3,-121.130523681641,-129.923034667969,-110.634773254395,-104.871139526367,-89.2829284667969,-86.5952529907227,19.748124999999998
4,-121.142868041992,-129.933303833008,-110.645835876465,-104.882530212402,-89.2922210693359,-86.6044769287109,25.9975
5,-121.15592956543,-129.944305419922,-110.657592773438,-104.894630432129,-89.3022232055664,-86.6144104003906,32.246875
6,-121.169692993164,-129.956024169922,-110.670059204102,-104.907470703125,-89.3129196166992,-86.6250534057617,38.496249999999996
7,-121.184158325195,-129.968444824219,-110.683219909668,-104.921020507813,-89.3243179321289,-86.6363983154297,44.745625
8,-121.199310302734,-129.981536865234,-110.697082519531,-104.93529510498,-89.3364028930664,-86.6484451293945,50.995
9,-121.208312988281,-129.988494873047,-110.704780578613,-104.943428039551,-89.3423461914063,-86.6543502807617,57.244375
10,-121.217956542969,-129.996109008789,-110.71312713623,-104.952224731445,-89.3489379882813,-86.6609191894531,63.49375
11,-121.228271484375,-130.004409790039,-110.722129821777,-104.961715698242,-89.3561782836914,-86.6681365966797,69.74312499999999
12,-121.239227294922,-130.01335144043,-110.731796264648,-104.971885681152,-89.3641052246094,-86.6760406494141,75.99249999999999
13,-121.250854492188,-130.022964477539,-110.742111206055,-104.982719421387,-89.3726577758789,-86.6845932006836,82.241875
14,-121.263122558594,-130.033233642578,-110.753089904785,-104.994232177734,-89.3818817138672,-86.6938171386719,88.49125
15,-121.27604675293,-130.044143676758,-110.764694213867,-105.006416320801,-89.3917541503906,-86.7036819458008,94.740625
16,-121.289596557617,-130.055709838867,-110.776947021484,-105.019248962402,-89.4022674560547,-86.7141952514648,100.99
17,-121.297515869141,-130.061645507812,-110.783561706543,-105.026473999023,-89.4071350097656,-86.7190933227539,107.239375
18,-121.306045532227,-130.068206787109,-110.790786743164,-105.034332275391,-89.4126205444336,-86.7245941162109,113.48875
19,-121.315200805664,-130.075378417969,-110.798622131348,-105.04280090332,-89.4187164306641,-86.7306976318359,119.738125
20,-121.324920654297,-130.083129882813,-110.807037353516,-105.051895141602,-89.4253997802734,-86.737419128418,125.9875
21,-121.335250854492,-130.091506958008,-110.816062927246,-105.061622619629,-89.4326934814453,-86.744743347168,132.236875
22,-121.34619140625,-130.100494384766,-110.82568359375,-105.071960449219,-89.4406051635742,-86.7526931762695,138.48624999999998
23,-121.357757568359,-130.110092163086,-110.835914611816,-105.08292388916,-89.4491195678711,-86.7612380981445,144.735625
24,-121.369888305664,-130.120300292969,-110.846748352051,-105.094512939453,-89.4582214355469,-86.7703857421875,150.98499999999999
25,-121.376876831055,-130.125350952148,-110.852416992188,-105.100952148437,-89.4621734619141,-86.7743911743164,157.234375
26,-121.38444519043,-130.130981445313,-110.858657836914,-105.10799407959,-89.4666976928711,-86.7789688110352,163.48375
27,-121.392562866211,-130.137176513672,-110.865463256836,-105.115608215332,-89.4717864990234,-86.7841110229492,169.733125
28,-121.401245117188,-130.143936157227,-110.872825622559,-105.123809814453,-89.4774475097656,-86.7898254394531,175.9825
29,-121.410491943359,-130.151275634766,-110.880744934082,-105.132591247559,-89.4836730957031,-86.7961120605469,182.231875
30,-121.420318603516,-130.159194946289,-110.88924407959,-105.141960144043,-89.4904556274414,-86.8029632568359,188.48125
31,-121.430694580078,-130.167663574219,-110.898292541504,-105.151908874512,-89.4978179931641,-86.8103866577148,194.730625
32,-121.441619873047,-130.176712036133,-110.907905578613,-105.162422180176,-89.505729675293,-86.8183670043945,200.98
33,-121.447860717773,-130.181060791016,-110.912811279297,-105.168273925781,-89.5089416503906,-86.821647644043,207.22937499999998
34,-121.454635620117,-130.185943603516,-110.918243408203,-105.174652099609,-89.5126876831055,-86.8254623413086,213.47875
35,-121.4619140625,-130.191360473633,-110.924186706543,-105.181579589844,-89.516960144043,-86.8298034667969,219.72812499999998
36,-121.469741821289,-130.197296142578,-110.9306640625,-105.189041137695,-89.5217514038086,-86.8346710205078,225.9775
37,-121.478088378906,-130.203765869141,-110.93766784668,-105.197044372559,-89.5270767211914,-86.8400650024414,232.22687499999998
38,-121.486953735352,-130.210754394531,-110.945190429688,-105.205604553223,-89.5329208374023,-86.8459930419922,238.47625
39,-121.496353149414,-130.218307495117,-110.953239440918,-105.214698791504,-89.539306640625,-86.8524475097656,244.72562499999998
40,-121.506271362305,-130.226364135742,-110.961822509766,-105.224334716797,-89.5462112426758,-86.8594284057617,250.975
41,-121.511932373047,-130.230163574219,-110.966117858887,-105.229705810547,-89.5488357543945,-86.8621368408203,257.224375
42,-121.51806640625,-130.234466552734,-110.970893859863,-105.23558807373,-89.5519638061523,-86.8653335571289,263.47375
43,-121.524719238281,-130.2392578125,-110.976173400879,-105.241981506348,-89.5555877685547,-86.869026184082,269.723125
44,-121.531860351563,-130.244552612305,-110.981941223145,-105.248893737793,-89.559700012207,-86.8732223510742,275.97249999999997
45,-121.539505004883,-130.250350952148,-110.988212585449,-105.256317138672,-89.5643310546875,-86.8779144287109,282.221875
46,-121.547637939453,-130.256652832031,-110.994972229004,-105.264236450195,-89.5694351196289,-86.8830947875977,288.47125
47,-121.556274414062,-130.263473510742,-111.002227783203,-105.272674560547,-89.5750503540039,-86.8887786865234,294.720625
48,-121.565414428711,-130.270767211914,-111.009979248047,-105.281631469727,-89.5811614990234,-86.8949584960938,300.96999999999997
49,-121.570663452148,-130.274200439453,-111.01383972168,-105.286712646484,-89.583381652832,-86.8972473144531,307.21937499999996
50,-121.576400756836,-130.278091430664,-111.018157958984,-105.292259216309,-89.5860748291016,-86.9000015258789,313.46875
51,-121.582565307617,-130.282440185547,-111.022926330566,-105.298271179199,-89.5892105102539,-86.903205871582,319.718125
52,-121.589202880859,-130.287261962891,-111.028160095215,-105.30477142334,-89.5928192138672,-86.906867980957,325.9675
53,-121.596343994141,-130.292556762695,-111.033866882324,-105.311767578125,-89.5969085693359,-86.911003112793,332.21687499999996
54,-121.603927612305,-130.29833984375,-111.040031433105,-105.319229125977,-89.6014556884766,-86.9156036376953,338.46625
55,-121.611999511719,-130.304595947266,-111.046669006348,-105.327178955078,-89.6064834594727,-86.9206848144531,344.715625
56,-121.620559692383,-130.311325073242,-111.053779602051,-105.33561706543,-89.6119766235352,-86.9262161254883,350.965
57,-121.625579833984,-130.314514160156,-111.057350158691,-105.340522766113,-89.6139373779297,-86.92822265625,357.21437499999996
58,-121.631042480469,-130.318161010742,-111.06135559082,-105.345893859863,-89.6163482666016,-86.9306716918945,363.46375
59,-121.636962890625,-130.322265625,-111.065811157227,-105.35173034668,-89.6191940307617,-86.9335556030273,369.713125
60,-121.643341064453,-130.326812744141,-111.070709228516,-105.358009338379,-89.6224899291992,-86.9368743896484,375.9625
61,-121.650161743164,-130.331817626953,-111.076049804688,-105.364753723145,-89.6262435913086,-86.9406509399414,382.21187499999996
62,-121.657440185547,-130.337280273437,-111.081832885742,-105.371948242187,-89.6304397583008,-86.9448547363281,388.46125
63,-121.665176391602,-130.343185424805,-111.088066101074,-105.379608154297,-89.6350784301758,-86.9495162963867,394.710625
64,-121.673385620117,-130.349563598633,-111.094749450684,-105.387733459473,-89.6401748657227,-86.9546127319336,400.96
65,-121.678375244141,-130.352737426758,-111.098220825195,-105.392669677734,-89.6420745849609,-86.9565124511719,407.20937499999997
66,-121.683807373047,-130.356323242188,-111.102111816406,-105.39803314209,-89.6443786621094,-86.9588088989258,413.45874999999995
67,-121.689666748047,-130.360336303711,-111.106422424316,-105.403816223145,-89.6471099853516,-86.9615249633789,419.708125
68,-121.695953369141,-130.364791870117,-111.111152648926,-105.410041809082,-89.6502685546875,-86.9646759033203,425.9575
69,-121.702682495117,-130.369674682617,-111.116310119629,-105.416717529297,-89.6538619995117,-86.9682312011719,432.20687499999997
70,-121.709854125977,-130.375015258789,-111.121887207031,-105.423820495605,-89.6578750610352,-86.9722213745117,438.45624999999995
71,-121.717468261719,-130.380767822266,-111.127891540527,-105.431365966797,-89.6623306274414,-86.9766159057617,444.705625
72,-121.725524902344,-130.386962890625,-111.134338378906,-105.439346313477,-89.6671981811523,-86.9814529418945,450.955
73,-121.730682373047,-130.390274047852,-111.137870788574,-105.444442749023,-89.6691818237305,-86.9833831787109,457.20437499999997
74,-121.736267089844,-130.393981933594,-111.141815185547,-105.44995880127,-89.6715698242188,-86.9857025146484,463.45374999999996
75,-121.742263793945,-130.39811706543,-111.14616394043,-105.45588684082,-89.6743621826172,-86.9884185791016,469.703125
76,-121.748687744141,-130.40266418457,-111.150917053223,-105.46223449707,-89.6775665283203,-86.9915466308594,475.9525
77,-121.75553894043,-130.407638549805,-111.156074523926,-105.469009399414,-89.6811828613281,-86.9950714111328,482.201875
78,-121.762817382812,-130.413024902344,-111.161643981934,-105.476196289063,-89.6852111816406,-86.9990005493164,488.45124999999996
79,-121.770523071289,-130.418823242188,-111.167640686035,-105.483810424805,-89.6896667480469,-87.0033416748047,494.700625
80,-121.778656005859,-130.425048828125,-111.174034118652,-105.491851806641,-89.6945266723633,-87.0080795288086,500.95
81,-121.784194946289,-130.428665161133,-111.177803039551,-105.497283935547,-89.6967697143555,-87.0101928710938,507.199375
82,-121.790130615234,-130.432678222656,-111.181968688965,-105.503105163574,-89.6993942260742,-87.0126876831055,513.44875
83,-121.796478271484,-130.437088012695,-111.186515808105,-105.509330749512,-89.7024154663086,-87.0155563354492,519.698125
84,-121.80322265625,-130.441909790039,-111.191452026367,-105.515953063965,-89.7058258056641,-87.0188064575195,525.9475
85,-121.810394287109,-130.447128295898,-111.196792602539,-105.522994995117,-89.7096405029297,-87.0224456787109,532.196875
86,-121.817977905273,-130.452743530273,-111.202522277832,-105.530433654785,-89.7138519287109,-87.0264892578125,538.44625
87,-121.825988769531,-130.458786010742,-111.208671569824,-105.538291931152,-89.7184677124023,-87.0309143066406,544.695625
88,-121.834411621094,-130.465240478516,-111.215187072754,-105.546546936035,-89.7234878540039,-87.0357208251953,550.9449999999999
89,-121.840515136719,-130.469329833984,-111.219367980957,-105.552444458008,-89.7261428833008,-87.0381698608398,557.1943749999999
90,-121.84700012207,-130.473815917969,-111.223915100098,-105.558738708496,-89.7291717529297,-87.0409851074219,563.44375
91,-121.853897094727,-130.47868347168,-111.228843688965,-105.565437316895,-89.7325973510742,-87.0441589355469,569.693125
92,-121.861175537109,-130.483947753906,-111.234146118164,-105.572509765625,-89.7363967895508,-87.0477142333984,575.9425
93,-121.868896484375,-130.489608764648,-111.239845275879,-105.579986572266,-89.7405853271484,-87.0516357421875,582.191875
94,-121.876998901367,-130.495666503906,-111.245933532715,-105.587852478027,-89.7451705932617,-87.0559463500977,588.44125
95,-121.885543823242,-130.502136230469,-111.252395629883,-105.59610748291,-89.750129699707,-87.0606307983398,594.690625
96,-121.894485473633,-130.508987426758,-111.259254455566,-105.604774475098,-89.7554931640625,-87.0656814575195,600.9399999999999
97,-121.901321411133,-130.513732910156,-111.263984680176,-105.611320495605,-89.7587280273437,-87.0686111450195,607.1893749999999
98,-121.908569335938,-130.518844604492,-111.269081115723,-105.618232727051,-89.762321472168,-87.0718841552734,613.4387499999999
99,-121.916213989258,-130.524353027344,-111.274551391602,-105.625541687012,-89.7662963867187,-87.0755157470703,619.688125
100,-121.924255371094,-130.530227661133,-111.280395507813,-105.633224487305,-89.7706527709961,-87.0795059204102,625.9375
101,-121.932693481445,-130.536499023438,-111.286605834961,-105.64128112793,-89.7753677368164,-87.083869934082,632.186875
102,-121.941528320313,-130.543151855469,-111.293197631836,-105.64973449707,-89.7804718017578,-87.0885925292969,638.43625
103,-121.950790405273,-130.550216674805,-111.300155639648,-105.658561706543,-89.7859573364258,-87.0936813354492,644.685625
104,-121.96044921875,-130.557662963867,-111.307502746582,-105.66780090332,-89.7918167114258,-87.0991363525391,650.935
105,-121.968246459961,-130.563201904297,-111.312934875488,-105.675109863281,-89.7957611083984,-87.102668762207,657.1843749999999
106,-121.976425170898,-130.569122314453,-111.318733215332,-105.682807922363,-89.8000946044922,-87.1065521240234,663.4337499999999
107,-121.985000610352,-130.575424194336,-111.324905395508,-105.690879821777,-89.8047714233398,-87.1107788085937,669.683125
108,-121.993988037109,-130.582092285156,-111.331436157227,-105.699317932129,-89.8098220825195,-87.1153564453125,675.9325
109,-122.003372192383,-130.589157104492,-111.338325500488,-105.708129882813,-89.8152389526367,-87.1203002929688,682.181875
110,-122.013153076172,-130.596588134766,-111.345581054688,-105.717323303223,-89.8210296630859,-87.1255874633789,688.43125
111,-122.023345947266,-130.604415893555,-111.353218078613,-105.726890563965,-89.8271865844727,-87.1312408447266,694.680625
112,-122.033935546875,-130.61262512207,-111.361213684082,-105.736839294434,-89.8337173461914,-87.1372375488281,700.93
113,-122.042861938477,-130.619125366211,-111.36750793457,-105.745079040527,-89.8385314941406,-87.1415176391602,707.1793749999999
114,-122.052169799805,-130.626007080078,-111.374145507813,-105.753692626953,-89.8437042236328,-87.146125793457,713.4287499999999
115,-122.061874389648,-130.633239746094,-111.381134033203,-105.762649536133,-89.8492279052734,-87.1510848999023,719.6781249999999
116,-122.071975708008,-130.640853881836,-111.388488769531,-105.771987915039,-89.855110168457,-87.156379699707,725.9275
117,-122.082473754883,-130.648834228516,-111.396194458008,-105.781692504883,-89.8613586425781,-87.1620178222656,732.176875
118,-122.093383789062,-130.657196044922,-111.404266357422,-105.791763305664,-89.8679733276367,-87.1679992675781,738.42625
119,-122.104705810547,-130.665954589844,-111.412704467773,-105.802207946777,-89.8749389648438,-87.1743392944336,744.675625
120,-122.116409301758,-130.675064086914,-111.421485900879,-105.813018798828,-89.8822784423828,-87.1810073852539,750.925
121,-122.126647949219,-130.682678222656,-111.428771972656,-105.822319030762,-89.8880920410156,-87.1861572265625,757.1743749999999
122,-122.137283325195,-130.690658569336,-111.436370849609,-105.831962585449,-89.8942565917969,-87.1916198730469,763.4237499999999
123,-122.148300170898,-130.699005126953,-111.444343566895,-105.841979980469,-89.9007720947266,-87.1974334716797,769.6731249999999
124,-122.159713745117,-130.707717895508,-111.452651977539,-105.852348327637,-89.9076385498047,-87.2035751342773,775.9225
125,-122.171539306641,-130.716796875,-111.461326599121,-105.863082885742,-89.9148483276367,-87.2100524902344,782.171875
126,-122.18376159668,-130.726257324219,-111.470352172852,-105.874176025391,-89.9224243164062,-87.2168731689453,788.42125
127,-122.196395874023,-130.736083984375,-111.479736328125,-105.885635375977,-89.9303588867188,-87.2240295410156,794.670625
128,-122.209426879883,-130.746276855469,-111.489456176758,-105.897468566895,-89.9386520385742,-87.2315216064453,800.92
129,-122.221145629883,-130.755126953125,-111.497840881348,-105.90795135498,-89.9455795288086,-87.2376480102539,807.169375
130,-122.233276367188,-130.764358520508,-111.506546020508,-105.91877746582,-89.9528427124023,-87.2440872192383,813.4187499999999
131,-122.245788574219,-130.773941040039,-111.515609741211,-105.929954528809,-89.9604721069336,-87.250862121582,819.6681249999999
132,-122.258697509766,-130.783889770508,-111.525001525879,-105.941482543945,-89.9684295654297,-87.2579574584961,825.9174999999999
133,-122.272018432617,-130.794204711914,-111.53475189209,-105.95337677002,-89.9767456054688,-87.2653884887695,832.166875
134,-122.285751342773,-130.804870605469,-111.544845581055,-105.965621948242,-89.9854049682617,-87.2731552124023,838.41625
135,-122.299865722656,-130.81591796875,-111.555282592773,-105.978225708008,-89.9944152832031,-87.28125,844.665625
136,-122.314407348633,-130.827346801758,-111.566078186035,-105.991195678711,-90.0037841796875,-87.289680480957,850.915
137,-122.32780456543,-130.837585449219,-111.575668334961,-106.002960205078,-90.0119400024414,-87.2968902587891,857.164375
138,-122.341583251953,-130.848175048828,-111.585578918457,-106.015075683594,-90.0204238891602,-87.3044128417969,863.4137499999999
139,-122.355758666992,-130.859130859375,-111.595832824707,-106.027549743652,-90.0292663574219,-87.312255859375,869.6631249999999
140,-122.370346069336,-130.87043762207,-111.606430053711,-106.040367126465,-90.0384292602539,-87.3204193115234,875.9124999999999
141,-122.385330200195,-130.882110595703,-111.617362976074,-106.053527832031,-90.047966003418,-87.3289184570313,882.161875
142,-122.40071105957,-130.894149780273,-111.628623962402,-106.067039489746,-90.0578155517578,-87.3377227783203,888.41125
143,-122.416534423828,-130.906555175781,-111.640251159668,-106.080924987793,-90.0680236816406,-87.3468780517578,894.660625
144,-122.432739257813,-130.919326782227,-111.652198791504,-106.095138549805,-90.0785675048828,-87.3563385009766,900.91
145,-122.447937011719,-130.931060791016,-111.663078308105,-106.108299255371,-90.0880432128906,-87.3647079467773,907.159375
146,-122.46354675293,-130.943130493164,-111.674285888672,-106.121803283691,-90.0978469848633,-87.373405456543,913.4087499999999
147,-122.479553222656,-130.95556640625,-111.685813903809,-106.135650634766,-90.1079864501953,-87.3824081420898,919.6581249999999
148,-122.495956420898,-130.968353271484,-111.697685241699,-106.149848937988,-90.1184692382813,-87.391731262207,925.9074999999999
149,-122.512786865234,-130.981521606445,-111.709892272949,-106.164398193359,-90.129280090332,-87.4013671875,932.1568749999999
150,-122.529998779297,-130.995025634766,-111.72241973877,-106.17928314209,-90.1404266357422,-87.4113235473633,938.40625
151,-122.547637939453,-131.008895874023,-111.735298156738,-106.194519042969,-90.1519241333008,-87.4216003417969,944.655625
152,-122.565689086914,-131.023147583008,-111.748489379883,-106.210098266602,-90.1637344360352,-87.4321975708008,950.905
153,-122.582870483398,-131.036468505859,-111.7607421875,-106.224754333496,-90.1746215820313,-87.4418334960938,957.154375
154,-122.600448608398,-131.050140380859,-111.773330688477,-106.239753723145,-90.1858291625977,-87.4517669677734,963.40375
155,-122.618438720703,-131.064178466797,-111.786224365234,-106.255081176758,-90.1973724365234,-87.4620208740234,969.6531249999999
156,-122.636840820313,-131.078567504883,-111.799438476562,-106.27074432373,-90.2092361450195,-87.4725875854492,975.9024999999999
157,-122.655654907227,-131.093307495117,-111.812995910645,-106.286766052246,-90.2214279174805,-87.4834594726563,982.1518749999999
158,-122.674865722656,-131.1083984375,-111.826866149902,-106.303115844727,-90.2339553833008,-87.4946441650391,988.40125
159,-122.69450378418,-131.12385559082,-111.84105682373,-106.319816589355,-90.2468109130859,-87.5061416625977,994.650625
160,-122.714553833008,-131.139694213867,-111.855583190918,-106.336853027344,-90.2600021362305,-87.5179443359375,1000.9
161,-122.733856201172,-131.154708862305,-111.869262695312,-106.353080749512,-90.2723617553711,-87.5289001464844,1007.149375
